 Fe Density=2.2 Thickness=10. microns
 Photon Energy (eV), Transmission
    1000.0      0.24391E-08
    1090.0      0.96523E-07
    1180.0      0.16004E-05
    1270.0      0.14083E-04
    1360.0      0.80395E-04
    1450.0      0.32079E-03
    1540.0      0.99180E-03
    1630.0      0.25068E-02
    1720.0      0.53748E-02
    1810.0      0.10262E-01
    1900.0      0.17681E-01
    1990.0      0.27967E-01
    2080.0      0.41331E-01
    2170.0      0.57940E-01
    2260.0      0.77550E-01
    2350.0      0.99869E-01
    2440.0      0.12449    
    2530.0      0.15099    
    2620.0      0.17892    
    2710.0      0.20783    
    2800.0      0.23734    
    2890.0      0.26707    
    2980.0      0.29675    
    3070.0      0.32609    
    3160.0      0.35490    
    3250.0      0.38301    
    3340.0      0.41031    
    3430.0      0.43669    
    3520.0      0.46210    
    3610.0      0.48649    
    3700.0      0.50986    
    3790.0      0.53218    
    3880.0      0.55348    
    3970.0      0.57376    
    4060.0      0.59306    
    4150.0      0.61140    
    4240.0      0.62882    
    4330.0      0.64536    
    4420.0      0.66105    
    4510.0      0.67592    
    4600.0      0.69003    
    4690.0      0.70341    
    4780.0      0.71609    
    4870.0      0.72812    
    4960.0      0.73953    
    5050.0      0.75035    
    5140.0      0.76061    
    5230.0      0.77035    
    5320.0      0.77959    
    5410.0      0.78837    
    5500.0      0.79670    
    5590.0      0.80463    
    5680.0      0.81215    
    5770.0      0.81931    
    5860.0      0.82612    
    5950.0      0.83260    
    6040.0      0.83877    
    6130.0      0.84465    
    6220.0      0.85025    
    6310.0      0.85559    
    6400.0      0.86068    
    6490.0      0.86553    
    6580.0      0.87017    
    6670.0      0.87459    
    6760.0      0.87882    
    6850.0      0.88286    
    6940.0      0.88673    
    7030.0      0.89042    
    7120.0      0.40802    
    7210.0      0.41925    
    7300.0      0.43030    
    7390.0      0.44122    
    7480.0      0.45199    
    7570.0      0.46261    
    7660.0      0.47306    
    7750.0      0.48336    
    7840.0      0.49350    
    7930.0      0.50346    
    8020.0      0.51327    
    8110.0      0.52290    
    8200.0      0.53236    
    8290.0      0.54165    
    8380.0      0.55076    
    8470.0      0.55970    
    8560.0      0.56848    
    8650.0      0.57708    
    8740.0      0.58551    
    8830.0      0.59378    
    8920.0      0.60187    
    9010.0      0.60978    
    9100.0      0.61756    
    9190.0      0.62516    
    9280.0      0.63260    
    9370.0      0.63989    
    9460.0      0.64701    
    9550.0      0.65398    
    9640.0      0.66081    
    9730.0      0.66748    
    9820.0      0.67401    
    9910.0      0.68039    
    10000.      0.68664    
